 "== FILTER DATA - LAMBDA 9 SPECTROPHOTOMETER =="
 "   KITT PEAK NATIONAL OBSERVATORY - NOAO"
  ------------------------------------------------
 "FILTER: KP1465 TEMP 22C               "
 "DATE: "" 7/13/95"   "TIME: ""14:34:10"
 " CWL= "  5433.04A  "FWHM= " 1020.64A  "TMAX= "88.43 %
 "TCUTOFF= " 2.00 %  "SLITSIZE= "10 A
 
 
 
 
 "NPTS= " 901     "DISP= "10.00A/INTERVAL
   3000.00     -.010
   3010.00     -.010
   3020.00     -.010
   3030.00     -.010
   3040.00     -.005
   3050.00     -.010
   3060.00     -.005
   3070.00     -.010
   3080.00     -.005
   3090.00     -.010
   3100.00     -.010
   3110.00     -.005
   3120.00     -.010
   3130.00     -.005
   3140.00     -.010
   3150.00     -.010
   3160.00     -.005
   3170.00     -.010
   3180.00     -.020
   3190.00     -.040
   3200.00     -.005
   3210.00     -.010
   3220.00     -.010
   3230.00     -.005
   3240.00     -.010
   3250.00     -.005
   3260.00     -.005
   3270.00     -.005
   3280.00     -.010
   3290.00     -.005
   3300.00     -.005
   3310.00     -.005
   3320.00     -.005
   3330.00     -.010
   3340.00     -.005
   3350.00     -.010
   3360.00     -.005
   3370.00     -.005
   3380.00     -.010
   3390.00     -.010
   3400.00     -.015
   3410.00     -.010
   3420.00     -.005
   3430.00     -.005
   3440.00     -.005
   3450.00     -.010
   3460.00     -.005
   3470.00     -.005
   3480.00     -.010
   3490.00     -.005
   3500.00     -.010
   3510.00     -.010
   3520.00     -.005
   3530.00     -.010
   3540.00     -.005
   3550.00     -.005
   3560.00     -.005
   3570.00     -.005
   3580.00     -.005
   3590.00     -.005
   3600.00     -.005
   3610.00     -.005
   3620.00     -.005
   3630.00     -.005
   3640.00     -.005
   3650.00     -.005
   3660.00     -.005
   3670.00      .000
   3680.00      .000
   3690.00     -.005
   3700.00     -.005
   3710.00     -.005
   3720.00     -.005
   3730.00     -.005
   3740.00     -.005
   3750.00     -.005
   3760.00      .000
   3770.00     -.010
   3780.00     -.015
   3790.00     -.005
   3800.00     -.010
   3810.00     -.010
   3820.00     -.010
   3830.00     -.005
   3840.00     -.005
   3850.00     -.005
   3860.00      .000
   3870.00     -.005
   3880.00     -.010
   3890.00     -.005
   3900.00     -.005
   3910.00     -.005
   3920.00     -.010
   3930.00     -.010
   3940.00     -.005
   3950.00     -.005
   3960.00     -.005
   3970.00     -.010
   3980.00     -.005
   3990.00     -.005
   4000.00     -.005
   4010.00      .000
   4020.00     -.005
   4030.00     -.005
   4040.00     -.005
   4050.00     -.005
   4060.00     -.005
   4070.00     -.005
   4080.00     -.005
   4090.00      .000
   4100.00     -.005
   4110.00     -.005
   4120.00     -.005
   4130.00     -.005
   4140.00     -.010
   4150.00     -.010
   4160.00     -.005
   4170.00     -.005
   4180.00     -.010
   4190.00     -.005
   4200.00     -.005
   4210.00     -.005
   4220.00     -.005
   4230.00     -.005
   4240.00     -.005
   4250.00     -.010
   4260.00     -.010
   4270.00     -.010
   4280.00     -.010
   4290.00     -.005
   4300.00     -.010
   4310.00     -.005
   4320.00     -.010
   4330.00     -.005
   4340.00     -.010
   4350.00      .000
   4360.00      .000
   4370.00     -.005
   4380.00     -.005
   4390.00     -.005
   4400.00     -.010
   4410.00     -.010
   4420.00     -.005
   4430.00     -.005
   4440.00     -.015
   4450.00     -.010
   4460.00     -.005
   4470.00     -.010
   4480.00     -.010
   4490.00     -.010
   4500.00     -.005
   4510.00     -.005
   4520.00     -.005
   4530.00     -.005
   4540.00     -.005
   4550.00     -.005
   4560.00     -.005
   4570.00     -.005
   4580.00     -.005
   4590.00     -.005
   4600.00     -.005
   4610.00     -.005
   4620.00     -.005
   4630.00     -.005
   4640.00     -.005
   4650.00     -.005
   4660.00     -.005
   4670.00     -.005
   4680.00     -.005
   4690.00     -.005
   4700.00     -.005
   4710.00     -.005
   4720.00     -.005
   4730.00     -.005
   4740.00     -.005
   4750.00     -.005
   4760.00     -.005
   4770.00      .005
   4780.00      .030
   4790.00      .100
   4800.00      .295
   4810.00      .760
   4820.00     1.690
   4830.00     3.365
   4840.00     5.990
   4850.00     9.745
   4860.00    14.550
   4870.00    20.175
   4880.00    26.485
   4890.00    33.060
   4900.00    39.625
   4910.00    45.965
   4920.00    51.725
   4930.00    56.960
   4940.00    61.545
   4950.00    65.670
   4960.00    69.145
   4970.00    72.155
   4980.00    74.685
   4990.00    76.840
   5000.00    78.680
   5010.00    80.255
   5020.00    81.570
   5030.00    82.670
   5040.00    83.655
   5050.00    84.420
   5060.00    85.195
   5070.00    85.670
   5080.00    86.160
   5090.00    86.600
   5100.00    86.960
   5110.00    87.300
   5120.00    87.555
   5130.00    87.710
   5140.00    87.940
   5150.00    88.035
   5160.00    88.135
   5170.00    88.205
   5180.00    88.325
   5190.00    88.355
   5200.00    88.380
   5210.00    88.425
   5220.00    88.420
   5230.00    88.300
   5240.00    88.285
   5250.00    88.235
   5260.00    88.105
   5270.00    88.070
   5280.00    87.990
   5290.00    87.820
   5300.00    87.670
   5310.00    87.485
   5320.00    87.300
   5330.00    87.175
   5340.00    86.970
   5350.00    86.765
   5360.00    86.535
   5370.00    86.235
   5380.00    85.970
   5390.00    85.720
   5400.00    85.430
   5410.00    85.155
   5420.00    84.795
   5430.00    84.445
   5440.00    84.055
   5450.00    83.680
   5460.00    83.270
   5470.00    82.925
   5480.00    82.455
   5490.00    82.045
   5500.00    81.525
   5510.00    81.035
   5520.00    80.535
   5530.00    79.975
   5540.00    79.425
   5550.00    78.855
   5560.00    78.225
   5570.00    77.620
   5580.00    77.020
   5590.00    76.380
   5600.00    75.630
   5610.00    74.925
   5620.00    74.205
   5630.00    73.500
   5640.00    72.735
   5650.00    71.975
   5660.00    71.180
   5670.00    70.380
   5680.00    69.500
   5690.00    68.740
   5700.00    67.825
   5710.00    66.895
   5720.00    66.035
   5730.00    65.090
   5740.00    64.135
   5750.00    63.185
   5760.00    62.240
   5770.00    61.245
   5780.00    60.235
   5790.00    59.245
   5800.00    58.160
   5810.00    57.120
   5820.00    56.075
   5830.00    54.970
   5840.00    53.920
   5850.00    52.830
   5860.00    51.755
   5870.00    50.670
   5880.00    49.530
   5890.00    48.405
   5900.00    47.315
   5910.00    46.205
   5920.00    45.130
   5930.00    43.965
   5940.00    42.870
   5950.00    41.755
   5960.00    40.675
   5970.00    39.530
   5980.00    38.380
   5990.00    37.315
   6000.00    36.220
   6010.00    35.145
   6020.00    34.090
   6030.00    33.020
   6040.00    31.980
   6050.00    30.925
   6060.00    29.885
   6070.00    28.865
   6080.00    27.850
   6090.00    26.870
   6100.00    25.880
   6110.00    24.930
   6120.00    24.000
   6130.00    23.055
   6140.00    22.155
   6150.00    21.235
   6160.00    20.395
   6170.00    19.565
   6180.00    18.700
   6190.00    17.920
   6200.00    17.075
   6210.00    16.325
   6220.00    15.595
   6230.00    14.830
   6240.00    14.155
   6250.00    13.460
   6260.00    12.800
   6270.00    12.155
   6280.00    11.540
   6290.00    10.940
   6300.00    10.365
   6310.00     9.815
   6320.00     9.270
   6330.00     8.780
   6340.00     8.265
   6350.00     7.785
   6360.00     7.350
   6370.00     6.920
   6380.00     6.510
   6390.00     6.125
   6400.00     5.745
   6410.00     5.375
   6420.00     5.035
   6430.00     4.710
   6440.00     4.405
   6450.00     4.100
   6460.00     3.830
   6470.00     3.590
   6480.00     3.325
   6490.00     3.105
   6500.00     2.880
   6510.00     2.675
   6520.00     2.485
   6530.00     2.300
   6540.00     2.125
   6550.00     1.960
   6560.00     1.815
   6570.00     1.675
   6580.00     1.540
   6590.00     1.420
   6600.00     1.310
   6610.00     1.200
   6620.00     1.105
   6630.00     1.005
   6640.00      .925
   6650.00      .850
   6660.00      .780
   6670.00      .705
   6680.00      .645
   6690.00      .590
   6700.00      .540
   6710.00      .485
   6720.00      .440
   6730.00      .400
   6740.00      .365
   6750.00      .325
   6760.00      .300
   6770.00      .270
   6780.00      .245
   6790.00      .220
   6800.00      .195
   6810.00      .175
   6820.00      .160
   6830.00      .145
   6840.00      .130
   6850.00      .115
   6860.00      .105
   6870.00      .090
   6880.00      .080
   6890.00      .065
   6900.00      .000
   6910.00      .055
   6920.00      .050
   6930.00      .045
   6940.00      .040
   6950.00      .035
   6960.00      .030
   6970.00      .030
   6980.00      .020
   6990.00      .020
   7000.00      .020
   7010.00      .015
   7020.00      .010
   7030.00      .010
   7040.00      .005
   7050.00      .005
   7060.00      .005
   7070.00      .005
   7080.00      .005
   7090.00      .005
   7100.00     -.005
   7110.00      .000
   7120.00     -.005
   7130.00     -.005
   7140.00      .000
   7150.00      .000
   7160.00      .000
   7170.00     -.005
   7180.00     -.005
   7190.00     -.005
   7200.00     -.005
   7210.00      .000
   7220.00     -.005
   7230.00     -.005
   7240.00     -.005
   7250.00     -.005
   7260.00     -.005
   7270.00      .000
   7280.00     -.010
   7290.00     -.005
   7300.00     -.005
   7310.00     -.005
   7320.00     -.005
   7330.00     -.005
   7340.00     -.005
   7350.00     -.010
   7360.00     -.005
   7370.00     -.005
   7380.00     -.005
   7390.00     -.005
   7400.00     -.005
   7410.00     -.005
   7420.00     -.005
   7430.00     -.005
   7440.00     -.005
   7450.00     -.005
   7460.00     -.005
   7470.00     -.005
   7480.00     -.005
   7490.00     -.005
   7500.00     -.005
   7510.00     -.005
   7520.00     -.005
   7530.00     -.005
   7540.00     -.005
   7550.00     -.005
   7560.00     -.005
   7570.00     -.005
   7580.00     -.005
   7590.00     -.005
   7600.00     -.005
   7610.00     -.005
   7620.00     -.005
   7630.00     -.005
   7640.00     -.005
   7650.00     -.005
   7660.00     -.005
   7670.00     -.005
   7680.00     -.005
   7690.00     -.005
   7700.00     -.005
   7710.00     -.005
   7720.00     -.005
   7730.00     -.005
   7740.00     -.005
   7750.00     -.005
   7760.00     -.005
   7770.00     -.005
   7780.00     -.005
   7790.00     -.005
   7800.00     -.005
   7810.00     -.005
   7820.00      .000
   7830.00     -.005
   7840.00     -.005
   7850.00     -.005
   7860.00     -.005
   7870.00     -.005
   7880.00     -.005
   7890.00     -.005
   7900.00     -.005
   7910.00     -.005
   7920.00     -.005
   7930.00     -.005
   7940.00      .000
   7950.00     -.005
   7960.00     -.005
   7970.00      .000
   7980.00     -.005
   7990.00     -.005
   8000.00     -.005
   8010.00     -.005
   8020.00     -.005
   8030.00     -.005
   8040.00      .000
   8050.00     -.005
   8060.00     -.005
   8070.00     -.005
   8080.00      .000
   8090.00     -.005
   8100.00     -.025
   8110.00      .000
   8120.00     -.005
   8130.00     -.005
   8140.00     -.005
   8150.00      .000
   8160.00      .000
   8170.00     -.005
   8180.00     -.005
   8190.00     -.005
   8200.00      .000
   8210.00     -.005
   8220.00      .000
   8230.00      .000
   8240.00     -.005
   8250.00     -.005
   8260.00      .000
   8270.00      .000
   8280.00      .000
   8290.00     -.005
   8300.00      .000
   8310.00      .000
   8320.00      .000
   8330.00      .000
   8340.00     -.005
   8350.00     -.005
   8360.00      .000
   8370.00     -.005
   8380.00      .000
   8390.00      .000
   8400.00     -.005
   8410.00      .000
   8420.00      .000
   8430.00      .000
   8440.00     -.005
   8450.00      .000
   8460.00      .000
   8470.00      .000
   8480.00      .000
   8490.00      .000
   8500.00      .000
   8510.00      .000
   8520.00      .000
   8530.00     -.005
   8540.00      .005
   8550.00      .000
   8560.00      .000
   8570.00      .005
   8580.00      .000
   8590.00     -.005
   8600.00     -.010
   8610.00     -.055
   8620.00     -.060
   8630.00     -.040
   8640.00     -.055
   8650.00     -.050
   8660.00     -.055
   8670.00     -.080
   8680.00     -.090
   8690.00     -.070
   8700.00     -.065
   8710.00     -.025
   8720.00     -.060
   8730.00     -.055
   8740.00     -.065
   8750.00     -.070
   8760.00     -.070
   8770.00     -.045
   8780.00     -.040
   8790.00     -.060
   8800.00     -.060
   8810.00     -.050
   8820.00     -.035
   8830.00     -.065
   8840.00     -.040
   8850.00     -.060
   8860.00     -.050
   8870.00     -.070
   8880.00     -.035
   8890.00     -.060
   8900.00     -.055
   8910.00     -.045
   8920.00     -.110
   8930.00      .000
   8940.00     -.030
   8950.00     -.085
   8960.00      .000
   8970.00     -.075
   8980.00     -.035
   8990.00     -.085
   9000.00      .015
   9010.00     -.070
   9020.00     -.015
   9030.00     -.050
   9040.00     -.060
   9050.00     -.045
   9060.00     -.115
   9070.00     -.075
   9080.00     -.020
   9090.00     -.045
   9100.00     -.075
   9110.00     -.065
   9120.00     -.070
   9130.00     -.085
   9140.00     -.035
   9150.00     -.065
   9160.00     -.060
   9170.00     -.075
   9180.00     -.010
   9190.00     -.065
   9200.00     -.070
   9210.00     -.025
   9220.00     -.060
   9230.00     -.070
   9240.00     -.105
   9250.00     -.055
   9260.00     -.055
   9270.00     -.040
   9280.00     -.085
   9290.00     -.025
   9300.00     -.090
   9310.00     -.050
   9320.00     -.025
   9330.00     -.055
   9340.00     -.030
   9350.00     -.060
   9360.00     -.070
   9370.00     -.040
   9380.00     -.065
   9390.00     -.045
   9400.00     -.055
   9410.00     -.085
   9420.00     -.045
   9430.00     -.025
   9440.00     -.075
   9450.00     -.060
   9460.00     -.065
   9470.00     -.045
   9480.00     -.065
   9490.00     -.015
   9500.00     -.045
   9510.00     -.045
   9520.00     -.075
   9530.00     -.060
   9540.00     -.040
   9550.00     -.070
   9560.00     -.060
   9570.00     -.065
   9580.00     -.105
   9590.00      .030
   9600.00     -.100
   9610.00     -.040
   9620.00     -.065
   9630.00     -.065
   9640.00     -.075
   9650.00     -.090
   9660.00     -.035
   9670.00     -.035
   9680.00     -.060
   9690.00     -.095
   9700.00     -.100
   9710.00     -.060
   9720.00     -.025
   9730.00     -.030
   9740.00     -.035
   9750.00     -.055
   9760.00     -.015
   9770.00     -.100
   9780.00     -.060
   9790.00     -.055
   9800.00     -.050
   9810.00     -.025
   9820.00     -.045
   9830.00     -.115
   9840.00     -.095
   9850.00     -.050
   9860.00     -.050
   9870.00     -.035
   9880.00     -.050
   9890.00     -.080
   9900.00     -.080
   9910.00     -.050
   9920.00     -.085
   9930.00     -.065
   9940.00     -.095
   9950.00     -.055
   9960.00     -.085
   9970.00     -.055
   9980.00     -.040
   9990.00     -.050
  10000.00     -.055
  10010.00     -.085
  10020.00     -.075
  10030.00     -.075
  10040.00     -.050
  10050.00     -.075
  10060.00     -.065
  10070.00     -.055
  10080.00     -.070
  10090.00     -.040
  10100.00     -.065
  10110.00     -.095
  10120.00     -.045
  10130.00     -.085
  10140.00     -.030
  10150.00     -.060
  10160.00     -.060
  10170.00     -.015
  10180.00     -.090
  10190.00     -.060
  10200.00     -.080
  10210.00     -.035
  10220.00     -.080
  10230.00     -.045
  10240.00     -.055
  10250.00     -.010
  10260.00     -.035
  10270.00     -.075
  10280.00     -.030
  10290.00     -.055
  10300.00     -.090
  10310.00     -.030
  10320.00     -.060
  10330.00     -.025
  10340.00     -.095
  10350.00     -.020
  10360.00     -.095
  10370.00     -.135
  10380.00     -.030
  10390.00     -.080
  10400.00     -.055
  10410.00     -.070
  10420.00     -.070
  10430.00     -.035
  10440.00     -.010
  10450.00     -.085
  10460.00     -.060
  10470.00     -.045
  10480.00     -.055
  10490.00     -.050
  10500.00     -.075
  10510.00     -.025
  10520.00     -.035
  10530.00     -.065
  10540.00     -.045
  10550.00     -.120
  10560.00     -.060
  10570.00     -.080
  10580.00     -.060
  10590.00     -.040
  10600.00     -.070
  10610.00     -.070
  10620.00     -.045
  10630.00     -.080
  10640.00     -.060
  10650.00     -.050
  10660.00     -.095
  10670.00     -.065
  10680.00     -.070
  10690.00     -.065
  10700.00     -.080
  10710.00     -.035
  10720.00     -.025
  10730.00     -.065
  10740.00     -.060
  10750.00     -.065
  10760.00     -.010
  10770.00     -.015
  10780.00      .050
  10790.00     -.030
  10800.00     -.060
  10810.00     -.060
  10820.00     -.120
  10830.00     -.070
  10840.00     -.040
  10850.00     -.060
  10860.00     -.075
  10870.00     -.040
  10880.00     -.065
  10890.00     -.070
  10900.00     -.025
  10910.00     -.030
  10920.00     -.060
  10930.00     -.065
  10940.00     -.025
  10950.00     -.030
  10960.00     -.085
  10970.00     -.080
  10980.00     -.035
  10990.00      .010
  11000.00     -.045
  11010.00     -.060
  11020.00     -.065
  11030.00     -.090
  11040.00     -.045
  11050.00     -.030
  11060.00     -.010
  11070.00     -.040
  11080.00     -.055
  11090.00     -.080
  11100.00     -.095
  11110.00     -.105
  11120.00      .015
  11130.00     -.045
  11140.00     -.045
  11150.00     -.040
  11160.00     -.050
  11170.00     -.035
  11180.00     -.040
  11190.00     -.050
  11200.00     -.100
  11210.00     -.115
  11220.00     -.080
  11230.00     -.065
  11240.00     -.010
  11250.00     -.055
  11260.00     -.020
  11270.00     -.020
  11280.00     -.020
  11290.00     -.005
  11300.00      .030
  11310.00     -.040
  11320.00     -.135
  11330.00     -.195
  11340.00     -.135
  11350.00     -.015
  11360.00      .000
  11370.00     -.095
  11380.00     -.125
  11390.00     -.030
  11400.00     -.035
  11410.00      .005
  11420.00     -.045
  11430.00     -.085
  11440.00     -.065
  11450.00      .010
  11460.00      .015
  11470.00      .045
  11480.00      .010
  11490.00     -.035
  11500.00     -.035
  11510.00     -.020
  11520.00     -.030
  11530.00     -.025
  11540.00     -.055
  11550.00     -.110
  11560.00     -.065
  11570.00     -.115
  11580.00     -.125
  11590.00     -.085
  11600.00     -.120
  11610.00     -.035
  11620.00     -.070
  11630.00     -.070
  11640.00     -.020
  11650.00     -.060
  11660.00     -.065
  11670.00     -.065
  11680.00     -.045
  11690.00     -.095
  11700.00     -.110
  11710.00     -.035
  11720.00     -.020
  11730.00     -.020
  11740.00     -.050
  11750.00     -.105
  11760.00     -.100
  11770.00      .005
  11780.00     -.010
  11790.00      .015
  11800.00     -.015
  11810.00     -.045
  11820.00     -.035
  11830.00      .035
  11840.00     -.040
  11850.00     -.040
  11860.00     -.100
  11870.00     -.110
  11880.00     -.160
  11890.00     -.220
  11900.00     -.145
  11910.00     -.015
  11920.00     -.060
  11930.00     -.025
  11940.00     -.090
  11950.00     -.130
  11960.00     -.060
  11970.00     -.025
  11980.00     -.055
  11990.00     -.070
  12000.00     -.095
 
